# .PCD v0.7 - Point Cloud Data file format
VERSION 0.7
FIELDS x y z intensity roll pitch yaw time
SIZE 4 4 4 4 4 4 4 8
TYPE F F F F F F F F
COUNT 1 1 1 1 1 1 1 1
WIDTH 90
HEIGHT 1
VIEWPOINT 0 0 0 1 0 0 0
POINTS 90
DATA ascii
0 0 0 0 -0.010214242 -0.041817181 -2.5309544 1.5659437e+09
0.86370003 0.62409413 -0.010231297 1 -0.0095338775 -0.037764281 -2.5242231 1.5659437e+09
1.7446862 1.2553073 -0.038985133 2 -0.0090292841 -0.036452606 -2.5191345 1.5659437e+09
2.5820694 1.8581264 -0.060753915 3 -0.0096951071 -0.036210001 -2.5168097 1.5659437e+09
3.58587 2.5959983 -0.0728423 4 -0.0089756679 -0.034826703 -2.5136979 1.5659437e+09
4.5494056 3.3083382 -0.089465126 5 -0.0087045357 -0.033905216 -2.5111263 1.5659437e+09
5.6275458 4.1050491 -0.11412253 6 -0.0078513697 -0.03248347 -2.5079033 1.5659437e+09
6.5310097 4.7697582 -0.13094035 7 -0.0085110487 -0.033115577 -2.5054498 1.5659437e+09
7.4930825 5.4842348 -0.14633891 8 -0.0086883195 -0.032996301 -2.5024412 1.5659437e+09
8.528059 6.262805 -0.15540974 9 -0.0087180221 -0.032749023 -2.4980695 1.5659437e+09
9.6214676 7.0887084 -0.16647361 10 -0.0086576939 -0.032017883 -2.4928105 1.5659437e+09
10.77711 7.985157 -0.19010308 11 -0.0083258273 -0.031036682 -2.4866202 1.5659437e+09
11.595197 8.6089592 -0.19348156 12 -0.0093704974 -0.031191176 -2.4821539 1.5659437e+09
12.439677 9.2634821 -0.19863366 13 -0.010061746 -0.030762972 -2.4776008 1.5659437e+09
13.294943 9.9446392 -0.20588164 14 -0.0087079043 -0.030548016 -2.4728491 1.5659437e+09
14.179005 10.653144 -0.20859608 15 -0.0091441851 -0.029340116 -2.4677663 1.5659437e+09
15.092061 11.383906 -0.20930389 16 -0.010237817 -0.028848346 -2.4626117 1.5659437e+09
16.008343 12.145969 -0.2211671 17 -0.0083822152 -0.028884323 -2.4581652 1.5659437e+09
16.972368 12.928543 -0.23253915 18 -0.0083352653 -0.029820811 -2.4542105 1.5659437e+09
17.9519 13.738194 -0.23386323 19 -0.0081900917 -0.029558998 -2.4506769 1.5659437e+09
18.953596 14.565357 -0.24206282 20 -0.0062003694 -0.029637018 -2.4482045 1.5659437e+09
19.981035 15.418737 -0.25394624 21 -0.0069556287 -0.030028796 -2.4458575 1.5659437e+09
21.030977 16.293249 -0.26259455 22 -0.0075462442 -0.030546166 -2.4442091 1.5659437e+09
22.094601 17.185102 -0.26669526 23 -0.0062628048 -0.029875102 -2.4422534 1.5659437e+09
23.181427 18.089603 -0.27432752 24 -0.0050385883 -0.027701108 -2.4403923 1.5659437e+09
24.86998 19.504749 -0.29991093 25 -0.0026692068 -0.029428478 -2.4424763 1.5659437e+09
26.016581 20.451624 -0.30684593 26 -0.0016747873 -0.028533433 -2.4457617 1.5659437e+09
27.192982 21.416168 -0.31182921 27 -0.0013029967 -0.028265428 -2.4494004 1.5659437e+09
28.394342 22.39547 -0.32833233 28 0.00026728673 -0.030074514 -2.4544966 1.5659437e+09
29.630819 23.3773 -0.33193237 29 0.00028908899 -0.029273057 -2.4597259 1.5659437e+09
30.884186 24.372374 -0.33952773 30 0.00052158715 -0.025355259 -2.4657519 1.5659437e+09
32.832851 25.881435 -0.34251204 31 -0.00015417825 -0.027193446 -2.4746242 1.5659437e+09
34.152912 26.889946 -0.3489933 32 -0.0013405012 -0.024486545 -2.4808693 1.5659437e+09
35.511154 27.918148 -0.35401478 33 -0.0038342453 -0.021576526 -2.4866159 1.5659437e+09
36.903168 28.955399 -0.35821643 34 -0.004981644 -0.022638412 -2.4926267 1.5659437e+09
38.31234 30.002575 -0.35003406 35 -0.0052603427 -0.023854209 -2.4984584 1.5659437e+09
39.742302 31.043695 -0.35249484 36 -0.0048662126 -0.02289502 -2.5045862 1.5659437e+09
41.203602 32.098415 -0.3515501 37 -0.0051372889 -0.023198681 -2.5104678 1.5659437e+09
42.697788 33.158142 -0.35848007 38 -0.0062234094 -0.022469064 -2.5165081 1.5659437e+09
44.212158 34.225201 -0.35823703 39 -0.0089086611 -0.023333628 -2.5186112 1.5659437e+09
45.737137 35.309994 -0.3528952 40 -0.0084487209 -0.023198195 -2.5185673 1.5659437e+09
47.278194 36.417183 -0.35302064 41 -0.0074216006 -0.022517823 -2.5168655 1.5659437e+09
48.836201 37.538139 -0.3530848 42 -0.0039475844 -0.021392539 -2.5151339 1.5659437e+09
50.403351 38.666206 -0.34976754 43 -0.001150671 -0.019958349 -2.5143144 1.5659437e+09
52.000927 39.826889 -0.34562469 44 0.00090763054 -0.019118555 -2.5130398 1.5659437e+09
54.432186 41.561684 -0.32803604 45 0.00025418861 -0.019023784 -2.5134823 1.5659437e+09
55.247681 42.159706 -0.32477549 46 0.00097438024 -0.018569766 -2.5130193 1.5659437e+09
56.072659 42.7519 -0.33717191 47 -0.00056960521 -0.018322544 -2.5128567 1.5659437e+09
56.906506 43.34034 -0.33025485 48 -0.0032128443 -0.02042545 -2.5132487 1.5659437e+09
57.74699 43.943298 -0.33380079 49 -0.0044880752 -0.022376481 -2.5133369 1.5659437e+09
59.422142 45.147671 -0.3113564 50 -0.0069099618 -0.019313836 -2.5131793 1.5659437e+09
60.26577 45.755142 -0.30731753 51 -0.0074305963 -0.015589163 -2.5131927 1.5659437e+09
61.121311 46.366737 -0.30527762 52 -0.0086014327 -0.012969871 -2.512886 1.5659437e+09
61.970345 46.983074 -0.28926742 53 -0.0090513956 -0.011233849 -2.5130076 1.5659437e+09
62.825283 47.592999 -0.28390345 54 -0.0085391337 -0.01046542 -2.5126643 1.5659437e+09
63.691505 48.213745 -0.27208021 55 -0.0088739805 -0.011456734 -2.5126419 1.5659437e+09
64.551239 48.835682 -0.25923842 56 -0.0091315787 -0.012892032 -2.5123322 1.5659437e+09
66.295624 50.090919 -0.2381354 57 -0.01076205 -0.013704191 -2.5123124 1.5659437e+09
67.169571 50.715439 -0.22194932 58 -0.010492115 -0.011919875 -2.512399 1.5659437e+09
68.916504 51.98 -0.18807365 59 -0.007322358 -0.0070748711 -2.5125535 1.5659437e+09
69.789665 52.617607 -0.18284409 60 -0.0060895695 -0.0069580232 -2.5122874 1.5659437e+09
71.585197 53.907753 -0.15648386 61 -0.00828161 -0.016822349 -2.5119414 1.5659437e+09
72.474457 54.54237 -0.14775902 62 -0.0076266159 -0.019886782 -2.5130711 1.5659437e+09
73.357491 55.177299 -0.13468216 63 -0.0083857663 -0.018498188 -2.5137913 1.5659437e+09
74.242386 55.802158 -0.12523229 64 -0.0088396659 -0.015640922 -2.5149078 1.5659437e+09
75.131119 56.446072 -0.1168657 65 -0.0088598328 -0.014754864 -2.5159693 1.5659437e+09
76.893768 57.705963 -0.087922111 66 -0.0074276752 -0.016997512 -2.5175743 1.5659437e+09
77.765602 58.317207 -0.077705525 67 -0.0072202547 -0.016441647 -2.5187373 1.5659437e+09
78.637733 58.935272 -0.055869371 68 -0.0064239795 -0.014698018 -2.5198476 1.5659437e+09
79.49968 59.556213 -0.044442777 69 -0.006464344 -0.012828795 -2.5206666 1.5659437e+09
80.366356 60.165325 -0.030203344 70 -0.0057222419 -0.011461749 -2.5217664 1.5659437e+09
83.778915 62.589897 0.038112421 71 -0.0049338141 -0.0097034685 -2.5220275 1.5659437e+09
87.165268 64.992096 0.10506651 72 -0.0024173122 -0.011735881 -2.5197208 1.5659437e+09
88.004509 65.587471 0.11558983 73 -0.0031101804 -0.011846689 -2.5191255 1.5659437e+09
89.660774 66.777649 0.14997143 74 -0.0079770973 -0.011745096 -2.5144022 1.5659437e+09
90.485909 67.379959 0.16183122 75 -0.0095301392 -0.010792825 -2.5102198 1.5659437e+09
91.308182 67.984375 0.18622869 76 -0.0095554739 -0.01031354 -2.505553 1.5659437e+09
92.121712 68.586311 0.20258087 77 -0.0085099004 -0.009721118 -2.500469 1.5659437e+09
92.940125 69.202133 0.21727732 78 -0.0075365882 -0.009025353 -2.4955015 1.5659437e+09
93.7509 69.812218 0.23380001 79 -0.0075646802 -0.0086267469 -2.4902132 1.5659437e+09
94.558235 70.429726 0.25070107 80 -0.0079152212 -0.0084062731 -2.4848936 1.5659437e+09
96.14563 71.673622 0.28657651 81 -0.0089054201 -0.0084046498 -2.4746504 1.5659437e+09
96.93895 72.300438 0.30863094 82 -0.0083207171 -0.0070798029 -2.4691107 1.5659437e+09
97.726547 72.933144 0.32823148 83 -0.0081145903 -0.0049040699 -2.4634616 1.5659437e+09
99.301346 74.212746 0.36724883 84 -0.0071364571 -0.0045068073 -2.4532475 1.5659437e+09
100.08713 74.856827 0.39025569 85 -0.0067852973 -0.0060072602 -2.4489903 1.5659437e+09
101.64002 76.153465 0.42352307 86 -0.0062079015 -0.0057340441 -2.4414821 1.5659437e+09
102.42093 76.809853 0.44323602 87 -0.0065661822 -0.0043106051 -2.4371893 1.5659437e+09
103.18513 77.474693 0.46508792 88 -0.0058077122 -0.0033092878 -2.4340825 1.5659437e+09
104.72929 78.808556 0.50055331 89 -0.00086442271 -0.0035411527 -2.4304831 1.5659437e+09
